freq,psd_x,psd_y,psd_z,psd_xyz,zv(50.8),mzv(49.8),ei(59.8),2hump_ei(74.8),3hump_ei(90.4)
0.0,0.000e+00,0.000e+00,0.000e+00,0.000e+00,1.000,1.000,1.000,1.000,1.000
1.5,0.000e+00,0.000e+00,0.000e+00,0.000e+00,0.995,0.993,0.992,0.990,0.989
3.0,0.000e+00,0.000e+00,0.000e+00,0.000e+00,0.988,0.982,0.980,0.977,0.974
4.5,0.000e+00,0.000e+00,0.000e+00,0.000e+00,0.979,0.969,0.966,0.960,0.957
6.0,2.814e+02,8.092e+00,1.669e+02,4.563e+02,0.968,0.954,0.948,0.941,0.936
7.5,2.323e+02,6.551e+00,1.351e+02,3.739e+02,0.954,0.935,0.928,0.919,0.912
9.0,1.964e+02,5.487e+00,1.119e+02,3.137e+02,0.939,0.915,0.906,0.894,0.886
10.5,1.676e+02,5.046e+00,9.828e+01,2.709e+02,0.923,0.892,0.881,0.867,0.857
12.0,1.543e+02,4.436e+00,9.006e+01,2.488e+02,0.904,0.867,0.853,0.837,0.826
13.5,1.412e+02,4.047e+00,7.968e+01,2.250e+02,0.883,0.839,0.824,0.805,0.793
15.0,1.188e+02,3.594e+00,6.772e+01,1.901e+02,0.861,0.810,0.792,0.772,0.758
16.5,1.089e+02,3.472e+00,6.223e+01,1.746e+02,0.837,0.779,0.759,0.737,0.722
18.0,1.124e+02,3.078e+00,5.844e+01,1.740e+02,0.812,0.747,0.724,0.700,0.684
19.5,8.018e+02,2.909e+00,5.853e+01,8.633e+02,0.785,0.713,0.688,0.663,0.646
21.0,2.826e+03,3.259e+00,5.278e+01,2.882e+03,0.756,0.678,0.651,0.624,0.606
22.5,3.659e+03,3.161e+00,4.556e+01,3.708e+03,0.726,0.641,0.613,0.585,0.567
24.0,4.139e+03,3.103e+00,4.116e+01,4.183e+03,0.695,0.604,0.575,0.546,0.527
25.4,4.816e+03,3.808e+00,3.842e+01,4.858e+03,0.662,0.566,0.536,0.507,0.488
26.9,5.133e+03,4.163e+00,4.006e+01,5.177e+03,0.629,0.528,0.496,0.468,0.448
28.4,5.618e+03,4.242e+00,4.115e+01,5.664e+03,0.594,0.489,0.457,0.429,0.410
29.9,6.257e+03,4.773e+00,3.916e+01,6.301e+03,0.558,0.450,0.418,0.391,0.372
31.4,6.928e+03,6.157e+00,3.532e+01,6.970e+03,0.521,0.411,0.380,0.353,0.335
32.9,7.584e+03,8.425e+00,3.178e+01,7.624e+03,0.484,0.372,0.342,0.317,0.300
34.4,8.451e+03,1.198e+01,3.257e+01,8.496e+03,0.446,0.334,0.305,0.282,0.266
35.9,9.562e+03,1.727e+01,3.467e+01,9.614e+03,0.407,0.296,0.270,0.249,0.234
37.4,1.191e+04,2.723e+01,3.632e+01,1.197e+04,0.367,0.259,0.235,0.217,0.203
38.9,1.632e+04,5.411e+01,3.825e+01,1.641e+04,0.327,0.223,0.202,0.187,0.175
40.4,2.259e+04,1.278e+02,4.059e+01,2.276e+04,0.287,0.188,0.171,0.158,0.149
41.9,3.160e+04,4.400e+02,4.489e+01,3.208e+04,0.246,0.154,0.142,0.132,0.124
43.4,4.177e+04,1.079e+03,4.856e+01,4.290e+04,0.206,0.122,0.114,0.108,0.103
44.9,5.534e+04,1.008e+03,6.489e+01,5.642e+04,0.165,0.092,0.089,0.087,0.084
46.4,7.608e+04,8.757e+02,1.236e+02,7.708e+04,0.125,0.064,0.067,0.068,0.068
47.9,9.235e+04,8.966e+02,1.886e+02,9.343e+04,0.094,0.045,0.047,0.052,0.055
49.4,1.035e+05,1.138e+03,3.325e+02,1.050e+05,0.070,0.035,0.031,0.039,0.045
50.9,9.673e+04,1.175e+03,3.338e+02,9.824e+04,0.062,0.037,0.021,0.031,0.039
52.4,8.915e+04,8.034e+02,2.182e+02,9.018e+04,0.073,0.046,0.021,0.028,0.037
53.9,7.543e+04,5.095e+02,1.530e+02,7.609e+04,0.097,0.061,0.026,0.028,0.037
55.4,5.654e+04,3.329e+02,1.337e+02,5.701e+04,0.129,0.078,0.032,0.031,0.038
56.9,4.081e+04,2.101e+02,1.344e+02,4.116e+04,0.167,0.093,0.037,0.034,0.039
58.4,3.008e+04,1.397e+02,1.654e+02,3.039e+04,0.205,0.105,0.039,0.037,0.040
59.9,2.407e+04,1.149e+02,2.323e+02,2.441e+04,0.242,0.115,0.040,0.038,0.040
61.4,1.954e+04,1.105e+02,2.836e+02,1.994e+04,0.279,0.123,0.038,0.038,0.039
62.9,1.535e+04,1.108e+02,3.427e+02,1.581e+04,0.315,0.129,0.033,0.037,0.037
64.4,1.182e+04,1.166e+02,4.371e+02,1.237e+04,0.350,0.132,0.031,0.035,0.035
65.9,8.882e+03,1.211e+02,5.556e+02,9.559e+03,0.384,0.133,0.029,0.032,0.032
67.4,6.525e+03,1.184e+02,7.770e+02,7.421e+03,0.417,0.132,0.028,0.028,0.028
68.9,4.897e+03,8.821e+01,6.163e+02,5.601e+03,0.449,0.129,0.031,0.024,0.024
70.4,3.500e+03,9.779e+01,3.039e+02,3.902e+03,0.480,0.123,0.037,0.019,0.020
71.9,2.452e+03,1.634e+02,1.748e+02,2.790e+03,0.510,0.115,0.046,0.014,0.017
73.4,1.876e+03,2.245e+02,1.486e+02,2.249e+03,0.538,0.105,0.059,0.011,0.013
74.9,1.654e+03,2.408e+02,1.291e+02,2.024e+03,0.565,0.097,0.079,0.011,0.012
76.3,1.857e+03,1.798e+02,1.214e+02,2.158e+03,0.590,0.091,0.101,0.012,0.012
77.8,1.884e+03,1.171e+02,1.435e+02,2.144e+03,0.615,0.086,0.124,0.014,0.014
79.3,1.570e+03,3.938e+01,1.627e+02,1.772e+03,0.637,0.082,0.148,0.018,0.017
80.8,1.500e+03,1.066e+02,2.095e+02,1.816e+03,0.658,0.080,0.172,0.022,0.020
82.3,1.756e+03,5.753e+02,3.347e+02,2.666e+03,0.678,0.081,0.198,0.026,0.023
83.8,1.994e+03,1.216e+03,5.021e+02,3.712e+03,0.696,0.085,0.224,0.029,0.026
85.3,2.031e+03,1.925e+03,7.028e+02,4.659e+03,0.712,0.091,0.251,0.031,0.028
86.8,1.608e+03,1.821e+03,5.981e+02,4.027e+03,0.727,0.101,0.277,0.032,0.029
88.3,8.297e+02,7.479e+02,2.328e+02,1.810e+03,0.740,0.113,0.304,0.032,0.030
89.8,5.685e+02,1.012e+03,4.711e+02,2.052e+03,0.751,0.126,0.331,0.030,0.030
91.3,7.537e+02,9.303e+02,7.389e+02,2.423e+03,0.761,0.143,0.357,0.027,0.029
92.8,7.957e+02,5.474e+02,7.480e+02,2.091e+03,0.769,0.169,0.382,0.027,0.028
94.3,6.319e+02,7.543e+02,9.632e+02,2.349e+03,0.775,0.197,0.407,0.027,0.027
95.8,5.691e+02,4.524e+02,5.161e+02,1.538e+03,0.780,0.224,0.432,0.027,0.024
97.3,4.981e+02,2.382e+02,2.690e+02,1.005e+03,0.783,0.252,0.455,0.029,0.022
98.8,3.987e+02,2.035e+02,2.424e+02,8.446e+02,0.784,0.279,0.477,0.031,0.018
100.3,2.978e+02,1.975e+02,2.586e+02,7.539e+02,0.784,0.307,0.497,0.035,0.015
101.8,3.047e+02,1.470e+02,2.574e+02,7.092e+02,0.781,0.333,0.517,0.040,0.013
103.3,2.865e+02,1.544e+02,1.912e+02,6.321e+02,0.778,0.360,0.535,0.047,0.013
104.8,1.388e+02,1.568e+02,9.416e+01,3.898e+02,0.772,0.386,0.551,0.059,0.012
106.3,5.643e+01,1.533e+02,3.578e+01,2.455e+02,0.765,0.411,0.565,0.075,0.012
107.8,1.515e+02,1.971e+02,2.522e+01,3.738e+02,0.757,0.435,0.578,0.092,0.013
109.3,3.942e+02,1.473e+02,2.535e+01,5.668e+02,0.746,0.458,0.589,0.110,0.014
110.8,7.540e+02,1.243e+02,3.476e+01,9.131e+02,0.735,0.480,0.598,0.129,0.015
112.3,1.494e+03,1.423e+02,3.893e+01,1.675e+03,0.722,0.500,0.605,0.148,0.018
113.8,2.462e+03,1.500e+02,4.060e+01,2.653e+03,0.707,0.520,0.610,0.168,0.020
115.3,3.674e+03,1.695e+02,5.340e+01,3.897e+03,0.691,0.538,0.613,0.189,0.023
116.8,4.879e+03,1.768e+02,6.026e+01,5.116e+03,0.674,0.554,0.614,0.209,0.024
118.3,5.646e+03,1.618e+02,5.564e+01,5.863e+03,0.655,0.569,0.613,0.230,0.025
119.8,5.865e+03,1.424e+02,5.235e+01,6.060e+03,0.636,0.582,0.610,0.251,0.025
121.3,5.893e+03,1.314e+02,5.332e+01,6.078e+03,0.615,0.594,0.605,0.272,0.024
122.8,5.740e+03,1.303e+02,5.250e+01,5.922e+03,0.593,0.604,0.599,0.292,0.023
124.3,5.275e+03,1.309e+02,5.076e+01,5.456e+03,0.570,0.612,0.590,0.312,0.024
125.8,4.987e+03,1.347e+02,4.810e+01,5.170e+03,0.546,0.618,0.580,0.331,0.025
127.2,4.774e+03,1.456e+02,4.380e+01,4.964e+03,0.521,0.622,0.568,0.350,0.026
128.7,4.615e+03,1.637e+02,3.996e+01,4.819e+03,0.495,0.625,0.554,0.368,0.027
130.2,4.491e+03,1.723e+02,3.996e+01,4.703e+03,0.469,0.626,0.539,0.385,0.029
131.7,4.367e+03,1.629e+02,3.829e+01,4.568e+03,0.442,0.625,0.522,0.400,0.031
133.2,4.244e+03,1.495e+02,4.019e+01,4.433e+03,0.414,0.622,0.504,0.415,0.035
134.7,4.049e+03,1.415e+02,4.061e+01,4.232e+03,0.386,0.617,0.485,0.428,0.038
136.2,3.812e+03,1.318e+02,3.801e+01,3.982e+03,0.369,0.611,0.465,0.440,0.043
137.7,3.365e+03,1.281e+02,2.973e+01,3.523e+03,0.355,0.603,0.444,0.450,0.055
139.2,2.649e+03,1.477e+02,1.738e+01,2.814e+03,0.342,0.593,0.423,0.459,0.068
140.7,2.143e+03,1.829e+02,1.432e+01,2.340e+03,0.329,0.582,0.400,0.467,0.082
142.2,1.616e+03,2.079e+02,1.731e+01,1.841e+03,0.318,0.569,0.377,0.472,0.096
143.7,8.341e+02,1.804e+02,2.764e+01,1.042e+03,0.308,0.555,0.354,0.476,0.111
145.2,3.230e+02,1.723e+02,4.415e+01,5.394e+02,0.299,0.540,0.330,0.478,0.127
146.7,1.840e+02,2.240e+02,6.888e+01,4.769e+02,0.293,0.523,0.307,0.479,0.143
148.2,1.366e+02,2.779e+02,9.027e+01,5.048e+02,0.287,0.505,0.283,0.478,0.159
149.7,8.791e+01,1.750e+02,6.088e+01,3.238e+02,0.284,0.487,0.260,0.475,0.176
151.2,4.589e+01,2.819e+01,1.581e+01,8.989e+01,0.282,0.467,0.237,0.471,0.192
152.7,3.969e+01,1.437e+01,1.035e+01,6.441e+01,0.283,0.446,0.215,0.465,0.208
154.2,4.508e+01,1.127e+01,1.049e+01,6.684e+01,0.285,0.425,0.193,0.457,0.225
155.7,4.781e+01,6.570e+00,1.089e+01,6.527e+01,0.288,0.403,0.172,0.449,0.240
157.2,4.895e+01,3.735e+00,9.052e+00,6.174e+01,0.293,0.381,0.159,0.438,0.256
158.7,5.451e+01,4.710e+00,7.701e+00,6.692e+01,0.300,0.358,0.150,0.427,0.271
160.2,6.297e+01,3.989e+00,7.040e+00,7.400e+01,0.308,0.336,0.141,0.414,0.285
161.7,7.212e+01,5.020e+00,7.869e+00,8.501e+01,0.316,0.313,0.133,0.400,0.298
163.2,7.652e+01,9.778e+00,8.679e+00,9.498e+01,0.326,0.290,0.126,0.385,0.311
164.7,7.846e+01,1.090e+01,8.210e+00,9.757e+01,0.336,0.268,0.120,0.369,0.322
166.2,7.462e+01,1.184e+01,7.541e+00,9.401e+01,0.346,0.246,0.114,0.353,0.333
167.7,7.449e+01,1.630e+01,7.453e+00,9.824e+01,0.357,0.226,0.109,0.336,0.342
169.2,7.629e+01,1.185e+01,8.008e+00,9.614e+01,0.372,0.216,0.105,0.318,0.350
170.7,7.473e+01,7.529e+00,8.751e+00,9.101e+01,0.396,0.207,0.102,0.300,0.357
172.2,7.632e+01,1.030e+01,8.826e+00,9.544e+01,0.419,0.199,0.099,0.281,0.363
173.7,7.882e+01,8.140e+00,7.240e+00,9.420e+01,0.441,0.191,0.098,0.263,0.367
175.2,8.204e+01,7.729e+00,6.879e+00,9.665e+01,0.462,0.184,0.096,0.244,0.370
176.7,8.390e+01,9.709e+00,7.757e+00,1.014e+02,0.482,0.178,0.095,0.226,0.372
178.1,8.477e+01,1.137e+01,9.190e+00,1.053e+02,0.501,0.173,0.095,0.208,0.372
179.6,8.352e+01,1.247e+01,9.658e+00,1.056e+02,0.519,0.168,0.095,0.190,0.370
181.1,8.522e+01,1.716e+01,8.938e+00,1.113e+02,0.536,0.164,0.096,0.172,0.368
182.6,9.124e+01,2.233e+01,8.412e+00,1.220e+02,0.552,0.160,0.097,0.155,0.364
184.1,8.663e+01,3.051e+01,1.011e+01,1.273e+02,0.567,0.158,0.099,0.139,0.359
185.6,7.964e+01,4.156e+01,9.915e+00,1.311e+02,0.581,0.155,0.102,0.124,0.352
187.1,7.816e+01,3.104e+01,7.613e+00,1.168e+02,0.593,0.153,0.104,0.109,0.345
188.6,7.878e+01,2.712e+01,7.290e+00,1.132e+02,0.604,0.152,0.108,0.096,0.336
190.1,7.996e+01,2.110e+01,6.912e+00,1.080e+02,0.614,0.151,0.111,0.091,0.327
191.6,7.702e+01,1.337e+01,6.362e+00,9.675e+01,0.623,0.150,0.115,0.085,0.316
193.1,7.507e+01,1.353e+01,6.268e+00,9.487e+01,0.630,0.150,0.120,0.081,0.304
194.6,7.259e+01,1.635e+01,6.548e+00,9.548e+01,0.636,0.150,0.125,0.076,0.292
196.1,7.014e+01,1.833e+01,6.966e+00,9.544e+01,0.641,0.150,0.131,0.072,0.279
197.6,6.342e+01,1.828e+01,7.178e+00,8.887e+01,0.644,0.150,0.136,0.069,0.266
199.1,5.656e+01,1.721e+01,6.945e+00,8.072e+01,0.647,0.150,0.143,0.066,0.252
