freq,psd_x,psd_y,psd_z,psd_xyz
0.0,3.468e+02,6.309e+00,4.098e+00,3.572e+02
1.5,2.023e+02,1.365e+01,1.504e+01,2.310e+02
3.1,1.264e+01,1.312e+01,1.776e+01,4.352e+01
4.6,1.289e+01,1.427e+01,2.004e+01,4.720e+01
6.2,1.174e+01,1.436e+01,1.936e+01,4.546e+01
7.7,1.296e+01,1.259e+01,1.921e+01,4.477e+01
9.2,1.411e+01,1.323e+01,1.866e+01,4.599e+01
10.8,1.269e+01,1.413e+01,1.954e+01,4.636e+01
12.3,1.401e+01,1.758e+01,1.934e+01,5.094e+01
13.8,1.936e+01,1.880e+01,1.973e+01,5.789e+01
15.4,2.414e+01,1.887e+01,1.973e+01,6.274e+01
16.9,2.788e+01,3.723e+01,1.955e+01,8.466e+01
18.5,4.633e+02,2.122e+02,2.475e+01,7.002e+02
20.0,6.616e+03,1.422e+03,6.023e+01,8.099e+03
21.5,1.142e+04,1.322e+03,8.256e+01,1.282e+04
23.1,1.427e+04,2.807e+02,7.354e+01,1.463e+04
24.6,1.981e+04,6.625e+01,8.545e+01,1.996e+04
26.1,2.594e+04,2.855e+01,1.382e+02,2.611e+04
27.7,3.198e+04,2.130e+01,2.515e+02,3.225e+04
29.2,3.699e+04,1.810e+01,2.573e+02,3.727e+04
30.8,4.594e+04,1.759e+01,1.849e+02,4.614e+04
32.3,5.812e+04,2.008e+01,2.411e+02,5.838e+04
33.8,7.012e+04,3.636e+01,2.573e+02,7.041e+04
35.4,8.267e+04,4.308e+01,1.469e+02,8.286e+04
36.9,9.427e+04,4.690e+01,1.249e+02,9.445e+04
38.4,1.147e+05,6.249e+01,2.258e+02,1.150e+05
40.0,1.443e+05,8.369e+01,6.375e+02,1.450e+05
41.5,1.791e+05,1.858e+02,1.495e+03,1.808e+05
43.1,2.490e+05,6.675e+02,2.540e+03,2.522e+05
44.6,3.818e+05,2.394e+03,3.524e+03,3.877e+05
46.1,5.882e+05,4.815e+03,6.283e+03,5.993e+05
47.7,8.919e+05,3.701e+03,7.748e+03,9.033e+05
49.2,1.203e+06,1.361e+03,3.870e+03,1.208e+06
50.7,1.232e+06,1.775e+03,1.006e+03,1.235e+06
52.3,8.976e+05,3.215e+03,3.588e+02,9.011e+05
53.8,5.718e+05,4.104e+03,5.737e+02,5.764e+05
55.4,4.470e+05,4.320e+03,3.873e+02,4.517e+05
56.9,3.929e+05,4.068e+03,2.626e+02,3.972e+05
58.4,3.589e+05,3.626e+03,2.438e+02,3.627e+05
60.0,3.334e+05,3.386e+03,2.051e+02,3.370e+05
61.5,3.064e+05,3.246e+03,1.839e+02,3.099e+05
63.0,2.615e+05,3.103e+03,2.435e+02,2.648e+05
64.6,2.130e+05,3.076e+03,3.700e+02,2.164e+05
66.1,1.748e+05,2.985e+03,4.072e+02,1.782e+05
67.7,1.246e+05,2.830e+03,2.843e+02,1.277e+05
69.2,6.304e+04,2.147e+03,5.206e+02,6.571e+04
70.7,5.317e+04,9.415e+02,5.093e+02,5.462e+04
72.3,9.336e+04,6.857e+02,1.907e+02,9.423e+04
73.8,1.105e+05,1.151e+03,8.996e+01,1.117e+05
75.4,1.088e+05,1.531e+03,9.251e+01,1.104e+05
76.9,9.871e+04,1.673e+03,1.094e+02,1.005e+05
78.4,8.362e+04,1.715e+03,1.215e+02,8.546e+04
80.0,6.977e+04,1.752e+03,1.247e+02,7.164e+04
81.5,5.879e+04,1.810e+03,1.148e+02,6.072e+04
83.0,5.056e+04,1.861e+03,1.108e+02,5.253e+04
84.6,4.466e+04,1.953e+03,1.200e+02,4.673e+04
86.1,4.083e+04,2.181e+03,1.291e+02,4.314e+04
87.7,3.741e+04,2.589e+03,1.421e+02,4.014e+04
89.2,3.407e+04,3.177e+03,1.585e+02,3.740e+04
90.7,3.139e+04,3.893e+03,1.787e+02,3.546e+04
92.3,2.885e+04,4.668e+03,1.887e+02,3.371e+04
93.8,2.646e+04,5.594e+03,1.974e+02,3.225e+04
95.3,2.471e+04,6.741e+03,2.379e+02,3.169e+04
96.9,2.324e+04,8.200e+03,3.052e+02,3.175e+04
98.4,2.203e+04,9.851e+03,4.342e+02,3.232e+04
100.0,2.149e+04,1.085e+04,6.043e+02,3.294e+04
101.5,2.143e+04,1.112e+04,6.635e+02,3.321e+04
103.0,2.098e+04,1.110e+04,5.244e+02,3.261e+04
104.6,2.032e+04,1.181e+04,2.997e+02,3.243e+04
106.1,2.156e+04,1.319e+04,2.157e+02,3.497e+04
107.6,2.382e+04,1.479e+04,2.372e+02,3.885e+04
109.2,2.490e+04,1.641e+04,2.273e+02,4.153e+04
110.7,2.528e+04,1.781e+04,2.092e+02,4.330e+04
112.3,2.497e+04,1.880e+04,1.875e+02,4.396e+04
113.8,2.438e+04,1.968e+04,1.769e+02,4.424e+04
115.3,2.321e+04,2.058e+04,1.753e+02,4.397e+04
116.9,2.107e+04,1.999e+04,1.811e+02,4.124e+04
118.4,1.837e+04,1.913e+04,2.019e+02,3.770e+04
119.9,1.179e+04,1.860e+04,1.769e+02,3.056e+04
121.5,8.135e+03,2.022e+04,1.656e+02,2.852e+04
123.0,7.872e+03,2.383e+04,2.079e+02,3.191e+04
124.6,6.945e+03,2.699e+04,2.492e+02,3.418e+04
126.1,5.207e+03,2.687e+04,2.441e+02,3.232e+04
127.6,3.664e+03,2.269e+04,1.964e+02,2.655e+04
129.2,3.017e+03,1.714e+04,1.538e+02,2.031e+04
130.7,3.004e+03,1.177e+04,1.286e+02,1.490e+04
132.2,3.175e+03,7.628e+03,1.444e+02,1.095e+04
133.8,2.994e+03,4.980e+03,1.601e+02,8.134e+03
135.3,2.395e+03,3.532e+03,1.607e+02,6.088e+03
136.9,1.747e+03,2.317e+03,1.392e+02,4.204e+03
138.4,1.327e+03,1.399e+03,1.096e+02,2.836e+03
139.9,1.111e+03,1.245e+03,1.116e+02,2.468e+03
141.5,1.171e+03,1.728e+03,1.507e+02,3.050e+03
143.0,1.891e+03,2.980e+03,2.509e+02,5.122e+03
144.6,2.772e+03,4.787e+03,3.882e+02,7.947e+03
146.1,3.127e+03,6.246e+03,4.865e+02,9.860e+03
147.6,3.057e+03,7.008e+03,5.236e+02,1.059e+04
149.2,3.076e+03,7.295e+03,5.069e+02,1.088e+04
150.7,2.961e+03,7.164e+03,4.993e+02,1.062e+04
152.2,2.576e+03,6.392e+03,4.377e+02,9.406e+03
153.8,2.051e+03,5.168e+03,3.648e+02,7.584e+03
155.3,1.526e+03,4.068e+03,3.005e+02,5.895e+03
156.9,1.173e+03,3.293e+03,2.584e+02,4.724e+03
158.4,9.646e+02,2.965e+03,2.488e+02,4.178e+03
159.9,7.110e+02,2.912e+03,2.516e+02,3.875e+03
161.5,4.859e+02,2.537e+03,2.260e+02,3.249e+03
163.0,4.004e+02,1.806e+03,1.724e+02,2.379e+03
164.5,4.418e+02,1.147e+03,1.299e+02,1.718e+03
166.1,4.513e+02,8.677e+02,1.118e+02,1.431e+03
167.6,4.360e+02,1.080e+03,1.157e+02,1.632e+03
169.2,4.369e+02,1.381e+03,1.288e+02,1.947e+03
170.7,4.453e+02,1.600e+03,1.272e+02,2.172e+03
172.2,6.212e+02,1.365e+03,1.112e+02,2.097e+03
173.8,9.054e+02,8.804e+02,8.608e+01,1.872e+03
175.3,1.231e+03,6.227e+02,7.624e+01,1.930e+03
176.8,2.088e+03,6.213e+02,6.883e+01,2.778e+03
178.4,3.304e+03,8.188e+02,7.105e+01,4.194e+03
179.9,3.304e+03,6.433e+02,6.228e+01,4.010e+03
